# electric field in the y direction
# energy (eV), amplitude
1.995999999999999858e-02 1.258591149245510993e-16
3.991999999999999715e-02 2.224895840932177687e-16
5.987999999999999573e-02 3.208790414819015140e-16
7.983999999999999431e-02 3.346601320822573514e-16
9.979999999999999982e-02 3.114854177305048564e-16
1.197599999999999915e-01 7.655711083595569742e-16
1.397199999999999831e-01 1.897302676164147870e-15
1.596799999999999886e-01 4.627836831902980655e-15
1.796399999999999941e-01 1.008746503149686191e-14
1.995999999999999996e-01 2.174233285930434489e-14
2.195599999999999774e-01 4.482656621888738397e-14
2.395199999999999829e-01 9.093032530854288262e-14
2.594799999999999884e-01 1.823228225820745964e-13
2.794399999999999662e-01 3.617205511872802546e-13
2.993999999999999995e-01 7.106214680207718244e-13
3.193599999999999772e-01 1.384451793071420939e-12
3.393199999999999550e-01 2.674979347434572442e-12
3.592799999999999883e-01 5.127155330830613034e-12
3.792399999999999660e-01 9.748902477050221276e-12
3.991999999999999993e-01 1.839101954413613226e-11
4.191599999999999770e-01 3.442104902017079970e-11
4.391199999999999548e-01 6.391748903127912596e-11
4.590799999999999881e-01 1.177599906953185844e-10
4.790399999999999658e-01 2.152574872849243962e-10
4.989999999999999436e-01 3.903935503101464879e-10
5.189599999999999769e-01 7.024752735499603283e-10
5.389199999999999546e-01 1.254133862005889122e-09
5.588799999999999324e-01 2.221474307549566927e-09
5.788399999999999102e-01 3.904120928685988611e-09
5.987999999999999989e-01 6.807534498699408362e-09
6.187599999999999767e-01 1.177717376040030907e-08
6.387199999999999545e-01 2.021514926616223711e-08
6.586799999999999322e-01 3.442686459372128326e-08
6.786399999999999100e-01 5.817047888924131793e-08
6.985999999999999988e-01 9.751972246903847246e-08
7.185599999999999765e-01 1.622060037212373589e-07
7.385199999999999543e-01 2.676862373659167427e-07
7.584799999999999320e-01 4.382983267490376572e-07
7.784399999999999098e-01 7.120299028351931927e-07
7.983999999999999986e-01 1.147654869651888325e-06
8.183599999999999763e-01 1.835308286265701336e-06
8.383199999999999541e-01 2.912000181905340946e-06
8.582799999999999319e-01 4.584145787347758741e-06
8.782399999999999096e-01 7.159951732671741050e-06
8.981999999999998874e-01 1.109548828222126063e-05
9.181599999999999762e-01 1.705954305620271215e-05
9.381199999999999539e-01 2.602393827687817445e-05
9.580799999999999317e-01 3.938794264457995452e-05
9.780399999999999094e-01 5.914774940044752139e-05
9.979999999999998872e-01 8.812473057053992148e-05
1.017959999999999976e+00 1.302692854431628086e-04
1.037919999999999954e+00 1.910605001969587803e-04
1.057879999999999932e+00 2.780253784276850710e-04
1.077839999999999909e+00 4.014048553974826176e-04
1.097799999999999887e+00 5.749968334224682268e-04
1.117759999999999865e+00 8.172086130247976313e-04
1.137719999999999843e+00 1.152351756775831697e-03
1.157679999999999820e+00 1.612210895860545024e-03
1.177640000000000020e+00 2.237913449488105819e-03
1.197599999999999998e+00 3.082118777913616346e-03
1.217559999999999976e+00 4.211532022856854032e-03
1.237519999999999953e+00 5.709728972169734323e-03
1.257479999999999931e+00 7.680253077068386128e-03
1.277439999999999909e+00 1.024991393822371165e-02
1.297399999999999887e+00 1.357217833596465785e-02
1.317359999999999864e+00 1.783050103238283460e-02
1.337319999999999842e+00 2.324139474007922562e-02
1.357279999999999820e+00 3.005698936918005382e-02
1.377239999999999798e+00 3.856678343883195026e-02
1.397199999999999998e+00 4.909824982378693109e-02
1.417159999999999975e+00 6.201592905943139472e-02
1.437119999999999953e+00 7.771863204778851897e-02
1.457079999999999931e+00 9.663438612593625021e-02
1.477039999999999909e+00 1.192127996091640191e-01
1.496999999999999886e+00 1.459145945908420228e-01
1.516959999999999864e+00 1.771981687014525797e-01
1.536919999999999842e+00 2.135031939671354073e-01
1.556879999999999820e+00 2.552314420317966515e-01
1.576839999999999797e+00 3.027252334223398123e-01
1.596799999999999997e+00 3.562441340834663350e-01
1.616759999999999975e+00 4.159407512978565702e-01
1.636719999999999953e+00 4.818366964606732861e-01
1.656679999999999930e+00 5.537999649890933407e-01
1.676639999999999908e+00 6.315251141522690848e-01
1.696599999999999886e+00 7.145176789734430933e-01
1.716559999999999864e+00 8.020842385847819500e-01
1.736519999999999841e+00 8.933294192689545943e-01
1.756479999999999819e+00 9.871608911788251062e-01
1.776439999999999797e+00 1.082303086551705817e+00
1.796399999999999775e+00 1.177319949951368905e+00
1.816359999999999975e+00 1.270646546185123738e+00
1.836319999999999952e+00 1.360628827411904940e+00
1.856279999999999930e+00 1.445570332096259403e+00
1.876239999999999908e+00 1.523784093076186119e+00
1.896199999999999886e+00 1.593647608926661130e+00
1.916159999999999863e+00 1.653658418072623260e+00
1.936119999999999841e+00 1.702487638630948874e+00
1.956079999999999819e+00 1.739028819436434725e+00
1.976039999999999797e+00 1.762439598282023123e+00
1.995999999999999774e+00 1.772173978310709774e+00
2.015959999999999752e+00 1.768003495843045725e+00
2.035919999999999952e+00 1.750026133717491161e+00
2.055879999999999708e+00 1.718662494565258658e+00
2.075839999999999907e+00 1.674639442708440784e+00
2.095799999999999663e+00 1.618962103043065426e+00
2.115759999999999863e+00 1.552875723074325531e+00
2.135720000000000063e+00 1.477819418188955236e+00
2.155679999999999819e+00 1.395374196993935056e+00
2.175640000000000018e+00 1.307207881187369969e+00
2.195599999999999774e+00 1.215019583884220822e+00
2.215559999999999974e+00 1.120486295671606625e+00
2.235519999999999730e+00 1.025213865216479059e+00
2.255479999999999929e+00 9.306942775342769147e-01
2.275439999999999685e+00 8.382706620338262749e-01
2.295399999999999885e+00 7.491109423130917211e-01
2.315359999999999641e+00 6.641905092390885113e-01
2.335319999999999840e+00 5.842837944323328037e-01
2.355280000000000040e+00 5.099641739671201268e-01
2.375239999999999796e+00 4.416112656950288984e-01
2.395199999999999996e+00 3.794244134478079733e-01
2.415159999999999751e+00 3.234409840581154993e-01
2.435119999999999951e+00 2.735580369566341652e-01
2.455079999999999707e+00 2.295559522421517229e-01
2.475039999999999907e+00 1.911227072597566912e-01
2.494999999999999662e+00 1.578776559312486671e-01
2.514959999999999862e+00 1.293938697517720282e-01
2.534919999999999618e+00 1.052183250028592837e-01
2.554879999999999818e+00 8.488944946427476324e-02
2.574840000000000018e+00 6.795175861954860785e-02
2.594799999999999773e+00 5.396750439012767964e-02
2.614759999999999973e+00 4.252542090402684771e-02
2.634719999999999729e+00 3.324677749048671194e-02
2.654679999999999929e+00 2.578903808585297774e-02
2.674639999999999684e+00 1.984748036451471423e-02
2.694599999999999884e+00 1.515515104262607840e-02
2.714559999999999640e+00 1.148153113691860634e-02
2.734519999999999840e+00 8.630262339951353182e-03
2.754479999999999595e+00 6.436249005166564882e-03
2.774439999999999795e+00 4.762405034612750970e-03
2.794399999999999995e+00 3.496266027951406424e-03
2.814359999999999751e+00 2.546638278634876830e-03
2.834319999999999951e+00 1.840410514441230506e-03
2.854279999999999706e+00 1.319613651022786540e-03
2.874239999999999906e+00 9.387793846475225379e-04
2.894199999999999662e+00 6.626206089019780416e-04
2.914159999999999862e+00 4.640352634170550532e-04
2.934119999999999617e+00 3.224197832960765510e-04
2.954079999999999817e+00 2.222680447245755178e-04
2.974039999999999573e+00 1.520257053541524143e-04
2.993999999999999773e+00 1.031672076126093518e-04
3.013959999999999972e+00 6.946259044197136386e-05
3.033919999999999728e+00 4.640287887521591097e-05
3.053879999999999928e+00 3.075555200808956051e-05
3.073839999999999684e+00 2.022491838784127482e-05
3.093799999999999883e+00 1.319576826245762162e-05
3.113759999999999639e+00 8.542150780508137500e-06
3.133719999999999839e+00 5.486361709111526724e-06
3.153679999999999595e+00 3.496119679925690328e-06
3.173639999999999795e+00 2.210409793700951840e-06
3.193599999999999994e+00 1.386576871914212240e-06
3.213559999999999750e+00 8.629780675782205745e-07
3.233519999999999950e+00 5.328932454021412478e-07
3.253479999999999706e+00 3.264865714373034794e-07
3.273439999999999905e+00 1.984609572040643411e-07
3.293399999999999661e+00 1.196932035068001216e-07
3.313359999999999861e+00 7.162234732836132750e-08
3.333319999999999617e+00 4.252186076796879777e-08
3.353279999999999816e+00 2.504728293127494299e-08
3.373239999999999572e+00 1.463840097021117364e-08
3.393199999999999772e+00 8.488115989149496587e-09
3.413159999999999972e+00 4.883302627501912701e-09
3.433119999999999727e+00 2.787408610594594180e-09
3.453079999999999927e+00 1.578600832361230986e-09
3.473039999999999683e+00 8.870104793379916275e-10
3.492999999999999883e+00 4.945042306776985527e-10
3.512959999999999638e+00 2.735244210285106818e-10
3.532919999999999838e+00 1.501093676341177324e-10
3.552879999999999594e+00 8.173451520229224089e-11
3.572839999999999794e+00 4.415598727953012287e-11
3.592799999999999550e+00 2.366823333543024782e-11
3.612759999999999749e+00 1.258738804886742963e-11
3.632719999999999949e+00 6.642123035562436560e-12
3.652679999999999705e+00 3.477712784620063791e-12
3.672639999999999905e+00 1.807011393476681015e-12
3.692599999999999660e+00 9.318506968039668858e-13
3.712559999999999860e+00 4.770822428635506702e-13
3.732519999999999616e+00 2.426833412414717922e-13
3.752479999999999816e+00 1.227485548953864375e-13
3.772439999999999571e+00 6.182640222900224811e-14
3.792399999999999771e+00 3.123739151595637854e-14
3.812359999999999527e+00 1.583484817581829100e-14
3.832319999999999727e+00 8.335063521474322215e-15
3.852279999999999927e+00 4.453555893487819596e-15
3.872239999999999682e+00 2.543132161940140658e-15
3.892199999999999882e+00 1.627320722697575393e-15
3.912159999999999638e+00 1.071782560120234596e-15
3.932119999999999838e+00 7.299581248835313682e-16
3.952079999999999593e+00 5.762655401738147607e-16
3.972039999999999793e+00 3.566242645520238740e-16
3.991999999999999549e+00 2.293370139540199311e-16
4.011959999999999305e+00 1.357915741077661663e-16
4.031919999999999504e+00 2.051252611832025693e-16
4.051879999999999704e+00 2.920043353944056235e-16
4.071839999999999904e+00 4.013397744195348671e-16
4.091800000000000104e+00 6.652633891004016287e-16
4.111759999999999415e+00 7.554823765618817475e-16
4.131719999999999615e+00 1.062664383929027244e-15
4.151679999999999815e+00 1.179194795694054085e-15
4.171640000000000015e+00 1.393984803586086089e-15
4.191599999999999326e+00 1.512929171833880788e-15
4.211559999999999526e+00 1.769771436367975627e-15
4.231519999999999726e+00 1.891979264382916874e-15
4.251479999999999926e+00 2.080307355655743150e-15
4.271440000000000126e+00 2.107071814502510992e-15
4.291399999999999437e+00 2.248906402590455081e-15
4.311359999999999637e+00 2.237852894417814083e-15
4.331319999999999837e+00 2.407685300263258602e-15
4.351280000000000037e+00 2.347326071956230033e-15
4.371239999999999348e+00 2.462836413561684757e-15
4.391199999999999548e+00 2.455508300707578106e-15
4.411159999999999748e+00 2.364712426693797643e-15
4.431119999999999948e+00 2.339259034311147181e-15
4.451079999999999259e+00 2.290767120549977723e-15
4.471039999999999459e+00 2.131861497158577077e-15
4.490999999999999659e+00 2.056942696103007169e-15
4.510959999999999859e+00 1.899489045449155510e-15
4.530920000000000059e+00 1.736419742796669257e-15
4.550879999999999370e+00 1.516811216846452472e-15
4.570839999999999570e+00 1.537057085256575338e-15
4.590799999999999770e+00 1.319128577806130352e-15
4.610759999999999970e+00 1.275061586753488270e-15
4.630719999999999281e+00 1.290874860350221625e-15
4.650679999999999481e+00 1.367401408108036469e-15
4.670639999999999681e+00 1.522993750608074337e-15
4.690599999999999881e+00 1.638776587396170917e-15
4.710560000000000080e+00 1.980889443859094365e-15
4.730519999999999392e+00 2.166943662342864623e-15
4.750479999999999592e+00 2.486534031798630337e-15
4.770439999999999792e+00 2.683588604488042824e-15
4.790399999999999991e+00 2.907782922893520457e-15
4.810359999999999303e+00 3.189065876519166562e-15
4.830319999999999503e+00 3.419344412524355348e-15
4.850279999999999703e+00 3.582771917430553111e-15
4.870239999999999903e+00 3.779467530369048370e-15
4.890199999999999214e+00 4.043508771609832720e-15
4.910159999999999414e+00 4.145217028526958137e-15
4.930119999999999614e+00 4.334736613078767649e-15
4.950079999999999814e+00 4.434572625814500576e-15
4.970040000000000013e+00 4.573042347602128127e-15
