# freqs(eV) eps1 eps2
7.293187496064689190e-01 -2.394900000114370471e+02 4.928299999874606385e+01
7.314701323486708651e-01 -2.388700000868667814e+02 4.832999999303165595e+01
7.336342451662705155e-01 -2.378400001227313396e+02 4.692800001997107984e+01
7.358112013833810749e-01 -2.372800000241243481e+02 4.502200000515062328e+01
7.380011156732125821e-01 -2.348000000592780054e+02 4.393199999655854526e+01
7.402041040782072479e-01 -2.335099999417645336e+02 4.376400000847563376e+01
7.424202840305372808e-01 -2.312599998799078094e+02 4.467999997959078939e+01
7.446497743729711960e-01 -2.298400000188770491e+02 4.502200000517481726e+01
7.468926953801188207e-01 -2.281299998798354807e+02 4.476799997933676423e+01
7.491491687800586607e-01 -2.265000001121002526e+02 4.470700001790562794e+01
7.514193177763619502e-01 -2.253000000205418303e+02 4.433799999923961366e+01
7.537032670705149373e-01 -2.235899998629389245e+02 4.383599999158870020e+01
7.560011428847543957e-01 -2.226300001480491062e+02 4.366900001491119809e+01
7.583130729853193586e-01 -2.213200000780452399e+02 4.328400001056194668e+01
7.606391867061332857e-01 -2.197899999354166880e+02 4.308100000328474977e+01
7.629796149729213273e-01 -2.184100000808641369e+02 4.274500001908577218e+01
7.653344903277760070e-01 -2.175999999057008552e+02 4.256599998949771191e+01
7.677039469541777628e-01 -2.157199998528352864e+02 4.204799998659872529e+01
7.700881207024826702e-01 -2.142599998948882956e+02 4.180799998745786894e+01
7.724871491158861181e-01 -2.127400000005124809e+02 4.111400000670614219e+01
7.749011714568732057e-01 -2.114500001389322676e+02 4.093300001897783602e+01
7.773303287341675194e-01 -2.102300001051096956e+02 4.072400000822536725e+01
7.797747637301868373e-01 -2.088600000616036709e+02 4.066000001592138346e+01
7.822346210290203050e-01 -2.074900001156231042e+02 4.024300001482883005e+01
7.847100470449348553e-01 -2.059799999554808778e+02 3.995899999679951975e+01
7.872011900514267468e-01 -2.047000001024725009e+02 3.952500001015570064e+01
7.897082002108262166e-01 -2.035200000681329016e+02 3.941000000899356337e+01
7.922312296044710100e-01 -2.018199999187220612e+02 3.904700000144642047e+01
7.947704322634596696e-01 -2.006400001014382042e+02 3.875200002302434399e+01
7.973259641999982383e-01 -1.994099999818733977e+02 3.842399998481469225e+01
7.998979834393529220e-01 -1.979200000806763455e+02 3.808500001422493852e+01
8.024866500524253654e-01 -1.966999999941568547e+02 3.782400001346522345e+01
8.050921261889592007e-01 -1.955099999421856012e+02 3.759099998622985339e+01
8.077145761113988520e-01 -1.941000000491704895e+02 3.729999999919373010e+01
8.103541662294099224e-01 -1.928399998979453187e+02 3.697499999230119272e+01
8.130110651350801465e-01 -1.916300000053599319e+02 3.660700001360834932e+01
8.156854436388139007e-01 -1.903100000011103532e+02 3.641599999662756915e+01
8.183774748059386983e-01 -1.891199999302056654e+02 3.602799998174896956e+01
8.210873339940378823e-01 -1.875899999312012767e+02 3.568199999452399851e+01
8.238151988910280554e-01 -1.862899998818651852e+02 3.537499998716647553e+01
8.265612495539981230e-01 -1.849500000079571009e+02 3.512600000386264298e+01
8.293256684488274910e-01 -1.837400001018373246e+02 3.479200001381881435e+01
8.321086404906020695e-01 -1.823900001084445535e+02 3.459200000674354669e+01
8.349103530848465127e-01 -1.811800000789176011e+02 3.419900000004118823e+01
8.377309961695926788e-01 -1.797100000657327428e+02 3.407099999709872407e+01
8.405707622583030725e-01 -1.785599999027934928e+02 3.361799998011929347e+01
8.434298464836715858e-01 -1.773200001253553637e+02 3.359600001076883302e+01
8.463084466423188568e-01 -1.761299999525574549e+02 3.320900000103442551e+01
8.492067632404090016e-01 -1.748900000004653066e+02 3.293799999627289310e+01
8.521249995402041533e-01 -1.736200000912863288e+02 3.269000002012009531e+01
8.550633616075842269e-01 -1.725500000270940859e+02 3.251800000083206754e+01
8.580220583605515650e-01 -1.710100000499955399e+02 3.219599999291783377e+01
8.610013016187479939e-01 -1.698499999156248919e+02 3.200099999432123354e+01
8.640013061540049444e-01 -1.685699999126145201e+02 3.170799999808771830e+01
8.670222897419560537e-01 -1.673300000648266916e+02 3.141399999860194114e+01
9.150124533808097205e-01 -1.491900000996849940e+02 2.786000001534636183e+01
9.184013883933311861e-01 -1.479900000219550122e+02 2.768500000571288666e+01
9.218155199486968154e-01 -1.467199999724379609e+02 2.747499999804373161e+01
9.252551300977589488e-01 -1.455400000326731629e+02 2.723699999959409368e+01
9.287205051168517800e-01 -1.443000000146674608e+02 2.684200001238800581e+01
9.322119355872158231e-01 -1.431399999487443040e+02 2.665699999447100055e+01
9.357297164762242714e-01 -1.419900000080260440e+02 2.652299999193315827e+01
9.392741472204523268e-01 -1.408500000121162543e+02 2.632800000470540525e+01
9.428455318106442329e-01 -1.395600000723399603e+02 2.603300000260306390e+01
9.464441788786237542e-01 -1.385199998899014702e+02 2.586799998065776762e+01
9.500704017862047213e-01 -1.374299999082406032e+02 2.568799999553586133e+01
9.537245187161516036e-01 -1.361700000724573840e+02 2.547100000724016766e+01
9.574068527652488392e-01 -1.349800000852974051e+02 2.523300001849838736e+01
9.611177320395326573e-01 -1.338099999483968929e+02 2.504999999243627329e+01
9.648574897517487869e-01 -1.325400000386393913e+02 2.481500000156977492e+01
9.686264643210914516e-01 -1.315500001043096745e+02 2.466300002089155186e+01
9.724249994752919291e-01 -1.304900000484018108e+02 2.446900000538207109e+01
9.762534443551158514e-01 -1.290799999880756559e+02 2.422499999801091164e+01
9.801121536213416308e-01 -1.279500000325762841e+02 2.402100000952236059e+01
9.840014875642834058e-01 -1.269400001115490966e+02 2.391100000695439221e+01
9.879218122159340032e-01 -1.258300001093786875e+02 2.368900001025877700e+01
9.918734994647977476e-01 -1.246999999220494288e+02 2.355199998363416114e+01
9.958569271734916128e-01 -1.236700000944497901e+02 2.338200001646866255e+01
9.998724792991912080e-01 -1.224699999019686345e+02 2.319599997999702268e+01
1.003920546017001536e+00 -1.214300000054423805e+02 2.302200000687458825e+01
1.008001523846339120e+00 -1.201999999242552093e+02 2.287699999180337329e+01
1.012115815780405770e+00 -1.190900000295844876e+02 2.269200000716880794e+01
1.016263831418850128e+00 -1.179899999692218273e+02 2.247099999292836969e+01
1.020445987103701269e+00 -1.168700000505634051e+02 2.229300001345644233e+01
1.024662706058675266e+00 -1.157599999128284480e+02 2.213999998450790230e+01
1.028914418531947872e+00 -1.146900000449997634e+02 2.200800001195177913e+01
1.033201561942497682e+00 -1.135700000589113330e+02 2.187700001550187778e+01
1.037524581030123016e+00 -1.125600000216353322e+02 2.170300001009007218e+01
1.041883928009241345e+00 -1.114400001005367074e+02 2.158600000167160005e+01
1.046280062726579807e+00 -1.103099999783893708e+02 2.141500000720158781e+01
1.050713452822878979e+00 -1.090800000086727550e+02 2.130600000982125408e+01
1.055184573898720890e+00 -1.080100000931295057e+02 2.114900001838987365e+01
1.059693909684612967e+00 -1.069799999667144306e+02 2.095799999883798392e+01
1.064241952215448039e+00 -1.059300000204352159e+02 2.084699999739969201e+01
1.068829202009480284e+00 -1.047899999798735138e+02 2.075400000384590271e+01
1.073456168251945453e+00 -1.037900000865939774e+02 2.055100001457083181e+01
1.078123368983475938e+00 -1.026900000064251373e+02 2.047499999113082225e+01
1.082831331293447219e+00 -1.015500001010963445e+02 2.033400000791114337e+01
1.087580591518418682e+00 -1.004999999256052092e+02 2.020699999915777312e+01
1.092371695445812474e+00 -9.946700003943706747e+01 2.014800000751673537e+01
1.097205198523006464e+00 -9.836099999157170259e+01 2.001600000583960082e+01
1.102081666071997423e+00 -9.734899999421452321e+01 1.991200000442709950e+01
1.107001673509818707e+00 -9.621399999153176452e+01 1.980499999799425481e+01
1.111965806574885418e+00 -9.515000000779944855e+01 1.968700000502435898e+01
1.116974661559456683e+00 -9.406900000762395564e+01 1.960600000896875272e+01
1.122028845548413756e+00 -9.315999999187985736e+01 1.957299999133956803e+01
1.127128976664542703e+00 -9.210100000437907397e+01 1.949100000055056725e+01
1.132275684320545261e+00 -9.100999999074873870e+01 1.941500000448058572e+01
1.137469609477979038e+00 -8.992300000875007981e+01 1.934800000699600986e+01
1.142711404913361539e+00 -8.883800000835692856e+01 1.924999999344021262e+01
1.148001735491663844e+00 -8.785799999498384238e+01 1.923900000432598389e+01
1.153341278447439278e+00 -8.680599999174937409e+01 1.920399999865865936e+01
1.158730723673829122e+00 -8.578299999497491513e+01 1.911399999105760017e+01
1.164170774019715582e+00 -8.477400000302633032e+01 1.903800000546123172e+01
1.169662145595280256e+00 -8.364699999601278080e+01 1.901800000469641816e+01
1.175205568086253205e+00 -8.262500000331034755e+01 1.896499999743022258e+01
1.180801785077140176e+00 -8.142600000168340557e+01 1.895700000528817242e+01
1.186451554383729290e+00 -8.055799999158168134e+01 1.901000000763550801e+01
1.192155648395189615e+00 -7.949499999820325513e+01 1.895299999104686250e+01
1.197914854426084252e+00 -7.844099999730940453e+01 1.893800000288635488e+01
1.203729975078637882e+00 -7.749100000153485723e+01 1.900200000818387025e+01
1.209601828615607166e+00 -7.644599999490338860e+01 1.905499999734780303e+01
1.215531249344114828e+00 -7.535300000508040341e+01 1.902400000584555073e+01
1.221519088010834642e+00 -7.427699999798525710e+01 1.900099999988294996e+01
1.227566212208907936e+00 -7.325900000692985259e+01 1.903699999995081527e+01
1.233673506797012154e+00 -7.223599999300289198e+01 1.910999999774391611e+01
1.239841874330997129e+00 -7.117799999784664067e+01 1.917900000017307249e+01
1.246072235508539849e+00 -7.023199999844686658e+01 1.929899999728337079e+01
1.252365529627269769e+00 -6.922100000077475102e+01 1.938100000217864505e+01
1.258722715056849850e+00 -6.816299999504120422e+01 1.947199999847840957e+01
1.265144769725507379e+00 -6.714800000811013092e+01 1.957700000002330043e+01
1.271632691621535471e+00 -6.617000000053994313e+01 1.975199999291287867e+01
1.278187499310306396e+00 -6.516299999306880864e+01 1.988999999410051345e+01
1.284810232467354485e+00 -6.416100000664604863e+01 2.007200000366215775e+01
1.291501952428122157e+00 -6.314999999810790854e+01 2.027199999227715921e+01
1.298263742754970806e+00 -6.212600000045966198e+01 2.044699999964657167e+01
1.305096709822102241e+00 -6.116899999500737550e+01 2.064900000653898005e+01
1.312001983419044615e+00 -6.021199999965184446e+01 2.087499999827210573e+01
1.318980717373401168e+00 -5.919699999435536597e+01 2.118100000574554187e+01
1.326034090193579651e+00 -5.823699999385055293e+01 2.149100000006690792e+01
1.333163305732254944e+00 -5.734000000433876920e+01 2.180400000707620123e+01
1.340369593871348242e+00 -5.639299999986308620e+01 2.213599999899597037e+01
1.347654211229344590e+00 -5.544700000766567882e+01 2.252799999994597968e+01
1.355018441891800096e+00 -5.459099999483193244e+01 2.288200000239687526e+01
1.362463598165930767e+00 -5.367200000368985258e+01 2.332600000709206256e+01
1.369991021360217776e+00 -5.277800000433526861e+01 2.384200000454379520e+01
1.377602082589996835e+00 -5.194400000308185383e+01 2.435499999974862462e+01
1.385298183610052636e+00 -5.115200000533666724e+01 2.491200000790431446e+01
1.393080757675277725e+00 -5.037000000015697054e+01 2.558599999450756712e+01
1.400951270430505158e+00 -4.966300000405669834e+01 2.622399999746512123e+01
1.408911220830678657e+00 -4.902599999461018854e+01 2.687299999802414519e+01
1.416962142092568211e+00 -4.843399999488885044e+01 2.765299999589919366e+01
1.425105602679306971e+00 -4.792899999413691603e+01 2.841499999881045113e+01
1.433343207319071944e+00 -4.749300000121346699e+01 2.918800000202150713e+01
1.441676598059298930e+00 -4.719199999631362630e+01 3.005700000170939745e+01
1.450107455357891428e+00 -4.690499999603655112e+01 3.083699999122161373e+01
1.458637499212937838e+00 -4.680699999727802663e+01 3.169800000702746345e+01
1.467268490332541031e+00 -4.680600000479404343e+01 3.253000000767514877e+01
1.476002231346425164e+00 -4.691300000632827505e+01 3.326400000419197767e+01
1.484840568061074562e+00 -4.712199999942949091e+01 3.397499999290934625e+01
1.493785390760237641e+00 -4.747900000187735259e+01 3.462400000659397392e+01
1.502838635552723900e+00 -4.790699999365077133e+01 3.515500000579440609e+01
1.512002285769508791e+00 -4.849900000369128605e+01 3.552099999731892410e+01
1.521278373412266571e+00 -4.909000000086670212e+01 3.578500000202211595e+01
1.530668980655552014e+00 -4.968999999431787273e+01 3.589600000030074511e+01
1.540176241404965340e+00 -5.029100000316194752e+01 3.592700000124586523e+01
1.549802342913746411e+00 -5.095499999267443769e+01 3.571200000008659714e+01
1.559549527460373675e+00 -5.144700000422666619e+01 3.547899999312780750e+01
1.569420094089869711e+00 -5.198099999266312210e+01 3.505399999743943340e+01
1.579416400421652433e+00 -5.242100000496594703e+01 3.453900000901956702e+01
1.589540864526919339e+00 -5.283900000340624104e+01 3.393599999885847041e+01
1.599795966878705844e+00 -5.312500000694020486e+01 3.333299999776109956e+01
1.610184252377918401e+00 -5.334600000017070442e+01 3.264899999475399284e+01
1.620708332458819845e+00 -5.342800000331690313e+01 3.193900000887148494e+01
1.631370887277627801e+00 -5.353200000340417120e+01 3.122199999494997158e+01
1.642174667988075765e+00 -5.351399999973094879e+01 3.042199999748266137e+01
1.653122499107996246e+00 -5.349099999386958615e+01 2.965500000116766799e+01
1.664217280981204139e+00 -5.336099999655782256e+01 2.895199999438013450e+01
1.675461992339185358e+00 -5.317099999787757980e+01 2.818899999435042858e+01
1.686859692967343172e+00 -5.295200000708650379e+01 2.742700000205962141e+01
1.698413526480818003e+00 -5.269000000555145391e+01 2.670799999453783258e+01
1.710126723215168454e+00 -5.240799999779144258e+01 2.599299999397485195e+01
1.722002603237495988e+00 -5.205799999945713807e+01 2.530900000077897261e+01
1.734044579483912107e+00 -5.168199999620057383e+01 2.464600000336281838e+01
1.746256161029573484e+00 -5.129800000143507788e+01 2.397100000590855373e+01
1.758640956497868446e+00 -5.090800000543916326e+01 2.334299999355410193e+01
1.771202677615710375e+00 -5.047700000519063934e+01 2.269100000097474990e+01
1.783945142922298110e+00 -5.002699999333203351e+01 2.210600000521458242e+01
1.796872281639126490e+00 -4.957399999731494944e+01 2.149500000219929063e+01
1.809988137709484635e+00 -4.910800000160906364e+01 2.086299999863289045e+01
1.823296874016172131e+00 -4.860799999529754700e+01 2.029599999831839341e+01
1.836802776786662372e+00 -4.805200000693562856e+01 1.974099999536295869e+01
1.850510260195517898e+00 -4.758400000505242389e+01 1.920300000149865483e+01
1.864423871174431646e+00 -4.704799999398236565e+01 1.864100000258670065e+01
1.878548294440904654e+00 -4.649499999861353672e+01 1.811100000187345671e+01
1.892888357757247508e+00 -4.596100000570169186e+01 1.759499999825470695e+01
1.907449037432303207e+00 -4.540099999239875928e+01 1.708100000529796247e+01
1.922235464079065315e+00 -4.485200000166693712e+01 1.658899999484143351e+01
1.937252928642182903e+00 -4.427299999912978024e+01 1.609099999730620567e+01
1.952506888710231703e+00 -4.367600000620594614e+01 1.564600000111553513e+01
1.968002975128566812e+00 -4.310600000002397536e+01 1.514300000013521696e+01
1.983746998929595495e+00 -4.251699999902441363e+01 1.471999999431263717e+01
1.999744958598382416e+00 -4.193599999359840780e+01 1.429100000226798528e+01
2.016003047692678241e+00 -4.134399999746905507e+01 1.384299999760731836e+01
2.032527662837700255e+00 -4.074200000081358297e+01 1.342699999909158493e+01
2.049325412117350531e+00 -4.014999999936900110e+01 1.304099999571766588e+01
2.066403123884995363e+00 -3.957900000166593912e+01 1.264200000632011722e+01
2.083767856018482689e+00 -3.896200000058708213e+01 1.227399999944575093e+01
2.101426905645757959e+00 -3.838000000376673171e+01 1.189500000159285342e+01
2.119387819369225934e+00 -3.777199999653662132e+01 1.153999999318352465e+01
2.137658404018960567e+00 -3.718399999897532382e+01 1.120300000418395214e+01
2.156246737966951876e+00 -3.657699999762303378e+01 1.085199999837174012e+01
2.175161183036837365e+00 -3.597399999604381549e+01 1.051300000363285569e+01
2.194410397046012928e+00 -3.538899999712657518e+01 1.019899999634317922e+01
2.214003347019637413e+00 -3.481300000072596390e+01 9.881199997289144221e+00
2.233949323118913366e+00 -3.421900000135256903e+01 9.547099999793703162e+00
2.254257953329085407e+00 -3.362200000039106840e+01 9.239099998610980080e+00
2.274939218955958076e+00 -3.303199999574886903e+01 8.957499996216981231e+00
2.296003470983327688e+00 -3.245300000168074206e+01 8.671099994402363009e+00
2.317461447347658243e+00 -3.187500000040915538e+01 8.399500002888776962e+00
2.339324291190560512e+00 -3.130999999933863975e+01 8.133099999002581626e+00
2.361603570154280352e+00 -3.073000000041455593e+01 7.868400002327453180e+00
2.384311296790379231e+00 -3.017299999655073606e+01 7.621199998573047196e+00
2.407459950157275763e+00 -2.959500000524502283e+01 7.373399998861051685e+00
2.431062498688229656e+00 -2.903499999632671802e+01 7.118599995221440047e+00
2.455132424417815873e+00 -2.847899999897583001e+01 6.883099994911559882e+00
2.479683748661994258e+00 -2.791599999952085653e+01 6.657900004535656002e+00
2.504731059254539538e+00 -2.735700000345294214e+01 6.432700005661471820e+00
2.530289539451014758e+00 -2.681799999567771309e+01 6.221099999331574537e+00
2.556374998620612793e+00 -2.627799999875240289e+01 6.013299999043769439e+00
2.583003904856244315e+00 -2.574800000410330014e+01 5.800400004273797983e+00
2.610193419644204482e+00 -2.520800000088242143e+01 5.606299999247633004e+00
2.637961434746802336e+00 -2.468200000305620279e+01 5.395899999534586655e+00
2.666326611464509888e+00 -2.415699999787864272e+01 5.220499997028173134e+00
2.695308422458689179e+00 -2.362699999564555142e+01 5.032799995921442893e+00
2.724927196331861534e+00 -2.310500000502445062e+01 4.844699997164820360e+00
2.755204165179993669e+00 -2.259299999887322130e+01 4.675300003559694773e+00
2.786161515350555451e+00 -2.208899999525065638e+01 4.507400000952930696e+00
2.817822441661357313e+00 -2.158500000029111732e+01 4.335099998673721089e+00
2.850211205358613942e+00 -2.108099999688126402e+01 4.178499995955825774e+00
2.883353196118597861e+00 -2.059100000182777634e+01 4.021099996616950278e+00
2.917274998425875676e+00 -2.009699999827849126e+01 3.868899998473964708e+00
2.952004462692850328e+00 -1.960500000056498848e+01 3.714900000343446695e+00
2.987570781520475283e+00 -1.911899999659520333e+01 3.575200002097206120e+00
3.024004571539017583e+00 -1.865100000323548812e+01 3.435500003638213506e+00
3.061337961311104028e+00 -1.818100000238143110e+01 3.298400000697381262e+00
3.099604685827492823e+00 -1.772199999769811640e+01 3.171099996793419695e+00
3.138840188179739421e+00 -1.725299999944759222e+01 3.043600002980074049e+00
3.179081729053838679e+00 -1.680100000146333628e+01 2.920299999274734937e+00
3.220368504755836803e+00 -1.634999999829368988e+01 2.805999998081232683e+00
3.262741774555255603e+00 -1.590800000354175125e+01 2.689399996314389529e+00
3.306244998215992492e+00 -1.546399999765045941e+01 2.580099999779895903e+00
3.350923984678370715e+00 -1.502499999651511864e+01 2.470399999757347587e+00
3.396827052961636007e+00 -1.458599999727282004e+01 2.364700000773201527e+00
3.444005206474991976e+00 -1.416999999791756615e+01 2.266700002195254804e+00
3.492512322059146967e+00 -1.375199999748338797e+01 2.170699999403473246e+00
3.542405355231420749e+00 -1.334099999705662398e+01 2.077200002143184676e+00
3.593744563278252979e+00 -1.293599999896427732e+01 1.985400002269015918e+00
3.646593748032344262e+00 -1.253199999927652364e+01 1.899200001245078484e+00
3.701020520391035795e+00 -1.213899999699245313e+01 1.812500002901177076e+00
3.757096588881809307e+00 -1.174799999913138926e+01 1.731399998093041015e+00
3.814898074864606414e+00 -1.136000000066695748e+01 1.653500001230630456e+00
